7667293636
8292696381
8433140790
8433142480
8433143841
8433145672
8433148606
8433148921
8433150093
8433150835
8433150996
8433155283
8433155665
8433155899
8433157742
8433160076
8433160129
8433162090
8433163358
8433163437
8433166729
8433167401
8433168171
8433171709
8433172967
8433177836
8433178133
8433178144
8433189278
8433217255
8433217939
8433220517
8433228091
8433252638
8433268117
8433268705
8433269807
8433270606
8433282425
8433284232
8433285853
8433286441
8433286470
8433291098
8433300863
8433301405
8433405422
8433423295
8433423469
8433442823
8433463603
8433471163
8433475649
8433477191
8433479768
8433482627
8433491202
8433491804
8433492014
8433492112
8433492274
8433492576
8433493429
8433493553
8433494424
8433496363
8433621693
8434034802
8434038035
8434039578
8434042515
8434044839
8434051010
8434054919
8434059681
8434081456
8434087401
8434088011
8434094204
8434137432
8434148252
8434151472
8434158039
8434162191
8434163876
8434168010
8434171803
8434172449
8434173272
8434174188
8434175482
8434176673
8434179719
8434181366
8434184383
8434188117
8434193925
8434194716
8434219118
8434220689
8434224930
8434228486
8434229506
8434240386
8434254264
8434284584
8434288733
8434289558
8434289594
8434289692
8434303016
8434310727
8434324822
8434328131
8434343949
8434344979
8434358400
8434362581
8434364231
8434364886
8434369521
8434380813
8434382599
8434384310
8434399074
8434402642
8434408897
8434409538
8434417205
8434440949
8434455706
8434467115
8434479690
8434491299
8434499747
8434504574
8434510661
8434515712
8434515954
8434546361
8434548020
8434559238
8434565880
8434568362
8434575005
8434575438
8434588001
8434607272
8434612890
8434616580
8434616633
8434649476
8434658173
8434663171
8434673776
8434679141
8434687251
8434691966
8434698682
8434702701
8434703484
8434703951
8434704171
8434704883
8434705188
8434710441
8434723300
8434735191
8434735726
8434736266
8434741032
8434753493
8434757773
8434759353
8434760022
8434761746
8434762561
8434765215
8434765602
8434771737
8434774965
8434775565
8434776554
8434778413
8434779279
8434785614
8434788925
8434795932
8434797871
8434806755
8434831395
8434831685
8434836659
8434838078
8434865674
8434866838
8434870050
8434870398
8434873040
8434874709
8434882908
8434883772
8434887709
8434888054
8434896581
8434902532
8434914256
8434922758
8434925208
8434926525
8434932686
8434937609
8434942245
8434943308
8434944364
8434950098
8434951489
8434952584
8434952638
8434965367
8434966276
8434969945
8434970065
8434978953
8434987963
8434994032
8434995681
8434998895
8453021251
8453021291
8453031325
8453036068
8453038242
8453039637
8453043425
8453043590
8453058794
8453064466
8453066691
8453068481
8453071856
8453077025
8453079695
8453083674
8453086689
8453088682
8453196698
8453198080
8453212910
8453225049
8453232079
8453236313
8453240353
8453243468
8453249408
8453255102
8453261143
8453264112
8453266304
8453267176
8453280583
8453282803
8453283743
8453293604
8453313319
8453315848
8453323460
8453326552
8453326553
8453331771
8453343135
8453344622
8453345493
8453348329
8453377471
8453380320
8453384161
8453385971
8453386462
8453395257
8453419454
8453429072
8453436422
8453440477
8453464440
8453464469
8453502464
8453507103
8453512837
8453517796
8453526507
8453555920
8453558792
8453560714
8453564086
8453572719
8453575626
8453576260
8453593810
8453595971
8453598976
8453600616
8453605883
8453611521
8453619305
8453623071
8453635063
8453640335
8453642482
8453654004
8453661351
8453667309
8453669482
8453671637
8453674701
8453683706
8453684865
8453697311
8453697348
8453707054
8453707540
8453741035
8453741971
8453743389
8453743596
8453744217
8453760810
8453763446
8453772071
8453772998
8453775998
8453776217
8453782543
8453787821
8453792806
8453795486
8453803436
8453809288
8453817404
8453819715
8453830752
8453836589
8453844834
8453847569
8453851077
8453865382
8453868404
8453872348
8453874978
8453879663
8453880484
8453891412
8453893551
8453898745
8453911127
8453911553
8453911876
8453920684
8453925405
8453927689
8453928772
8453933654
8453942020
8453955861
8453963505
8453963824
8453965226
8453966410
8453980702
8453989164
8459012927
8459017378
8459018770
8459022829
8459026270
8459027619
8459037703
8459041606
8459045904
8459046263
8459050409
8459069504
8459073641
8459078541
8459081230
8459088035
8459091055
8459093864
8459130214
8459132257
8459141496
8459143941
8459173747
8459301231
8459319093
8459346492
8459348749
8459350865
8459413609
8459418248
8459422261
8459428560
8459484305
8459488423
8459489481
8459494449
8459495030
8459516214
8459516264
8459523893
8459529805
8459532266
8459534546
8459658132
8459664931
8459673385
8459683982
8459751377
8459755462
8459761150
8459765286
8459776106
8459784646
8459792613
8459794032
8459799921
8459800286
8459807968
8459820320
8694933580
8694940839
8694943324
8694956091
8694956359
8694959286
8694962589
8694969130
8694973088
8694975317
8694976266
8694978503
8694978858
8694980852
8694988288
8694990076
8694992169
8694993749
8694996191
8694996246
8710004808
8710005314
8710014702
8710020993
8710024726
8710034730
8710038604
8710040638
8710047136
8710047706
8710048563
8710053694
8710059341
8710063433
8710071336
8710071368
8710071620
8710076107
8710079199
8710081639
8710088913
8710091372
8710091915
8710092598
8710093058
8710095166
8710805311
8710815011
8710816754
8710817231
8710829984
8710836758
8710837456
8710840679
8710844620
8710846588
8710866684
8710887742
8710892726
8710898369
8710904755
8710904812
8710905539
8710906004
8710910843
8710912179
8710928146
8710929421
8710937079
8710950089
8710951690
8710952393
8710961986
8710962342
8710965196
8710965989
8710972278
8710977903
8710979117
8711900894
8711901680
8711902416
8711903967
8711905524
8711906516
8711906726
8711909159
8711910557
8711911317
8925053525
8925055084
8925058459
8925090753
8925090801
8925090953
8925119540
8925130031
8925130997
8925163080
8925184175
8925187661
8925189513
8925247191
8925253904
8925264889
8925279221
8925320059
8925337553
8925377694
8925417942
8925499172
8925540382
8925547451
8925553100
8925578991
8925612346
8925617997
8925626156
8925658629
8925678299
8925679459
8925761095
8925839505
8925929850
8925939552
8925948202
8926002087
8926003367
8926003371
8926003569
8926026801
8926033324
8926049273
8926051285
8926052867
8926053490
8926080069
8926082147
8926088064
8926090073
8926090125
8926090475
8926092490
8926092720
8926094010
8926099419
8926099934
8926101059
8926101523
8926103013
8926107769
8926108192
8926110218
8926138703
8926139738
8926140966
8926142301
8926146117
8926146416
8926161928
8926163108
8926165387
8926169519
8926169975
8926171264
8926172730
8926173292
8926175542
8926175744
8926179426
8926179699
8926180987
8926181715
8926183354
8926186456
8926208623
8926209359
8926210249
8926210467
8926214156
8926214930
8926216843
8926218172
8926219518
8926221485
8926225378
8926226591
8926227959
8926229893
8926231846
8926237727
8926239229
8926239770
8926242762
8926242979
8926251894
8926251985
8926252551
8926253606
8926261131
8926261362
8926264424
8926267067
8926267835
8926269686
8926270870
8926270872
8926270964
8926273427
8926274591
8926275728
8926277142
8926280811
8926282136
8926282195
8926285291
8926285388
8926285886
8926287483
8926288376
8926289318
8926289852
8926290622
8926290672
8926293064
8926301803
8926303847
8926304473
8926305971
8926306242
8926307016
8926310056
8926312178
8926313879
8926318556
8926328646
8926337460
8926346227
8926346809
8926349128
8926350765
8926350932
8926351695
8926351962
8926354481
8926356130
8926367764
8926367799
8926369271
8926369861
8926381295
8926383327
8926384092
8926384138
8926407242
8926413903
8926414352
8926414887
8926415792
8926418835
8926421109
8926422884
8926453935
8926455629
8926458307
8926461063
8926461629
8926463810
8926468783
8926469464
8926470730
8926472051
8926473173
8926474902
8926476492
8926477447
8926478411
8926478580
8926486938
8926491404
8926491899
8926498290
8926500012
8926507136
8926515034
8926520253
8926524429
8926527228
8926531738
8926534383
8926536871
8926538814
8926539579
8926540682
8926543545
8926549661
8926552724
8926554274
8926569765
8926572180
8926572697
8926575042
8926579796
8926583636
8926583857
8926590382
8926595259
8926602286
8926603205
8926603708
8926604097
8926604752
8926608746
8926611991
8926612039
8926614341
8926615687
8926618406
8926623114
8926623710
8926626902
8926628554
8926634610
8926638897
8926647386
8926648741
8926655218
8926658108
8926664410
8926670959
8926674700
8926675662
8926676302
8926678452
8926682895
8926685783
8926686254
8926692342
8926696792
8926700738
8926703144
8926705042
8926708322
8926714159
8926714199
8926715130
8926719069
8926719070
8926719921
8926722147
8926722591
8926725749
8926726762
8926728545
8926730396
8926736236
8926742683
8926746475
8926748078
8926748556
8926754685
8926755075
8926755819
8926756052
8926772029
8926772397
8926774955
8926787171
8926791077
8926797188
8926800379
8926805104
8926809108
8926815805
8926817483
8926818343
8926819590
8926819843
8926823535
8926824380
8926825571
8926826457
8926829017
8926829831
8926833422
8926837799
8926838183
8926838635
8926840362
8926842493
8926843264
8926844422
8926845195
8926849742
8926852248
8926853483
8926854370
8926854857
8926860828
8926861982
8926862815
8926862817
8926866935
8926867527
8926868195
8926868196
8926874062
8926886047
8926889423
8926889493
8926890430
8926898525
8926903246
8926909829
8926910930
8926911507
8926911963
8926911968
8926913242
8926915304
8926916814
8926917699
8926921932
8926923902
8926925277
8926925543
8926926831
8926928758
8926930280
8926934105
8926934930
8926936916
8926937602
8926942226
8926942502
8926943368
8926944679
8926948145
8926949383
9133134546
9133145008
9133155308
9133175168
9133185407
9133191330
9133209518
9133230442
9133241913
9133252402
9133266239
9133276457
9133309485
9133347805
9133349017
9133351417
9133352993
9133364740
9133377435
9133377900
9133391167
9133394702
9133411527
9133414533
9133428930
9133472245
9133475019
9133482440
9133484172
9133486253
9133507513
9133511793
9133527605
9133545006
9133561135
9133569727
9133578292
9133593715
9133598541
9133623168
9133653983
9133671225
9133696740
9133737147
9133755287
9133767088
9133785809
9133800085
9133800386
9133826407
9133841497
9133844890
9133856183
9133857108
9133868062
9133869765
9133870547
9135006228
9135007300
9135008768
9135014302
9135029907
9135054929
9135054994
9135055779
9135057560
9135058803
9135061988
9135074802
9135075961
9135089681
9135090677
9135107691
9135138775
9135145821
9135150217
9135153420
9135170994
9135172131
9135172710
9135181339
9135183484
9135185623
9135187611
9135191656
9135193904
9135196376
9135203975
9135204104
9135204865
9135206772
9135210544
9135226730
9135230987
9135244897
9135247619
9135248316
9135251760
9135269677
9135270838
9135279055
9135294140
9135294591
9135299916
9135307342
9135315991
9135337291
9135338179
9135341318
9135346353
9135352698
9135358124
9135379741
9135380023
9135395899
9135409215
9135413392
9135414721
9135414968
9135415349
9135416836
9135416916
9135439226
9135439272
9135439687
9135453645
9135462932
9135468197
9135487469
9135497565
9135499886
9135500166
9135503249
9135511562
9135519197
9135523522
9135533169
9135542264
9135543835
9135550906
9135552298
9135554519
9135555743
9135557903
9135561403
9135561470
9135563276
9135580693
9135585275
9135586067
9135605026
9135611433
9135626592
9135627512
9135632095
9135633306
9135636351
9135641962
9135646335
9135649080
9135649489
9135653823
9135714727
9135720490
9135726556
9135734340
9135744041
9135745287
9135746518
9135751644
9135774551
9135777634
9135783109
9135807861
9135831213
9135837765
9135841484
9135854827
9135857144
9135864521
9135868869
9135872030
9135886268
9135888541
9135891053
9135899302
9135921581
9135925416
9135927830
9135937411
9135940795
9135945836
9136070608
9136105805
9136106519
9136120568
9136129682
9136130720
9136139965
9136164144
9136179221
9136182987
9136183139
9136185867
9136188445
9136204912
9136227734
9136228943
9136241249
9136241451
9136242456
9136270779
9136280364
9136301120
9136308315
9136311062
9136337867
9136349570
9136361862
9136398829
9136404920
9136431812
9136431966
9136438433
9136452054
9136477544
9136481100
9136494056
9136535798
9136552981
9136560846
9136567710
9136575173
9136581243
9136596675
9136679022
9136704338
9136708908
9136735031
9136774659
9136795579
9136807402
9136812445
9136818017
9136824557
9136836876
9136839885
9136843367
9136845431
9136846749
9136848974
9136870338
9136881600
9136882429
9136899160
9137301459
9137328349
9137330959
9137447035
9137459717
9137723365
9137767161
9137916343
9137916934
9137951090
9137953202
9138165860
9138166038
9138218838
9138237966
9138290792
9138414078
9138421514
9138920339
9138926040
9141001541
9141008356
9141011781
9141011924
9141020572
9141026414
9141038412
9141042534
9141046215
9141048095
9141062183
9141102002
9141102385
9141107867
9141113972
9141132908
9141145245
9141149121
9141152376
9141166033
9141166604
9141174870
9141177327
9141180469
9141187115
9141188341
9141221178
9141221816
9141231482
9141234335
9141250838
9141257931
9141270617
9141270885
9141271364
9141275102
9141276482
9141277206
9141293163
9141305751
9141333128
9141337677
9141338522
9141345898
9141372476
9141379986
9141381277
9141388220
9141389581
9141394713
9141399291
9141403094
9141465719
9141468053
9141471140
9141475313
9141480312
9141483367
9141485410
9141491765
9141495273
9141496208
9141499356
9141530247
9141536624
9141537104
9141544128
9141546343
9141557948
9141566193
9141613601
9141616758
9141622385
9141632756
9141637365
9141642286
9141643335
9141645268
9141651739
9141665486
9141676302
9141685974
9141691040
9141702993
9141712262
9141715197
9141720417
9141731766
9141735900
9141742551
9141743787
9141751527
9141762505
9141768893
9141774823
9141775849
9141782409
9141791792
9141821030
9141826437
9141851819
9141862825
9141864848
9141870015
9141871375
9141872318
9141874699
9141877110
9141877841
9141878525
9141884316
9141895281
9141933821
9141944934
9141949523
9143004509
9143012318
9143014458
9143039874
9143044810
9143046607
9143065716
9143069468
9143080255
9143102711
9143105262
9143105879
9143107395
9143107636
9143115659
9143118431
9143133870
9143135243
9143137221
9143142905
9143145440
9143165982
9143166991
9143169596
9143173526
9143176419
9143177609
9143179351
9143194307
9143196648
9143198268
9143199174
9143199564
9143199566
9143203156
9143209828
9143221896
9143236547
9143238464
9143239563
9143243585
9143245345
9143253911
9143259613
9143259795
9143265906
9143265973
9143266682
9143273375
9143277451
9143280896
9143284547
9143298071
9143301546
9143302314
9143303160
9143307083
9143308578
9143310890
9143324267
9143326847
9143335824
9143337149
9143337918
9143345472
9143349102
9143349278
9143350955
9143378929
9143381239
9143390247
9143392369
9143395609
9143396811
9143404023
9143407614
9143408775
9143409495
9143412844
9143413301
9143413819
9143414571
9143417511
9143417834
9143420756
9143425618
9143431063
9143432532
9143452616
9143466539
9143468356
9143469081
9143469663
9143477679
9143485537
9143486429
9143488640
9143493468
9143507279
9143513685
9143525348
9143532122
9143537073
9143544423
9143544680
9143545617
9143548649
9143550692
9143552045
9143553926
9143556407
9143556461
9143557076
9143561386
9143562023
9143562746
9143563862
9143566659
9143570569
9143574929
9143580018
9143588002
9143594577
9143595880
9143600274
9143609077
9143621307
9143622152
9143627634
9143629432
9143630544
9143630596
9143639632
9143640659
9143641422
9143643458
9143645894
9143646914
9143646917
9143654314
9143655761
9143685634
9143687458
9143689041
9143697319
9143716720
9143719399
9143740686
9143743590
9143746416
9143749527
9143751130
9143751230
9143753783
9143761579
9143762963
9143764484
9143767880
9143770502
9143776751
9143783658
9143790105
9143790418
9143820258
9143826097
9143827677
9143829389
9143830692
9143836210
9143848527
9143850008
9143852024
9143860503
9143861657
9143876025
9143886672
9143889421
9143890402
9143891229
9143893103
9143894151
9143896940
9143902108
9143907243
9143917937
9143924982
9143934306
9145021046
9145056688
9145122120
9145123473
9145124422
9145127062
9145127494
9145132001
9145138621
9145138977
9145149576
9145150912
9145162149
9145167057
9145167712
9145169340
9145173811
9145187162
9145187855
9145198725
9145203931
9145204827
9145205250
9145206785
9145207362
9145212860
9145212902
9145214610
9145218810
9145219217
9145220282
9145224713
9145225696
9145236029
9145236763
9145238011
9145239215
9145246836
9145252028
9145255129
9145257119
9145258475
9145259721
9145259766
9145261908
9145265755
9145266632
9145269056
9145270933
9145271422
9145300682
9145327128
9145328365
9145335713
9145343392
9145343664
9145359624
9145368774
9145380313
9145395449
9145404251
9145408891
9145410935
9145411415
9145416292
9145417579
9145421043
9145429316
9145431076
9145433075
9145443306
9145453035
9145456305
9145457338
9145460513
9145461782
9145475541
9145480088
9145485851
9145495884
9145532013
9145541132
9145548901
9145554245
9145556703
9145558349
9145559591
9145563375
9145568504
9145572103
9145573593
9145577197
9145599975
9145608763
9145636453
9145645112
9145646424
9145649156
9145650885
9145655093
9145680395
9145699485
9145702549
9145704352
9145713100
9145719238
9145722445
9145722972
9145743198
9145754263
9145763288
9145766452
9145773385
9145774968
9145784316
9145792910
9145794165
9145799107
9145819344
9145821523
9145830725
9145837876
9145839338
9145841409
9145854342
9145855857
9145860515
9145865550
9145871476
9145873352
9145877516
9145881342
9145884076
9145889432
9145896533
9145899311
9145917312
9145938373
9145947673
9145947698
9145948078
9145948634
9145948756
9145966805
9145972651
9145973547
9145976246
9146025040
9146031346
9146047607
9146058194
9146058317
9146069502
9146089303
9146095367
9146119129
9146120363
9146128881
9146128884
9146136757
9146148942
9146158937
9146166678
9146167879
9146176601
9146188268
9146191608
9146192054
9146192514
9146210668
9146227223
9146229604
9146234219
9146246948
9146248972
9146267234
9146284702
9146300326
9146310369
9146328654
9146406209
9146427250
9146440611
9146475935
9146476379
9146495146
9146495911
9146500553
9146505116
9146507763
9146515790
9146535277
9146551266
9146551681
9146552908
9146553548
9146555320
9146558197
9146560100
9146562873
9146565208
9146569100
9146571860
9146581851
9146652574
9146656659
9146662357
9146671033
9146672836
9146683410
9146684154
9146693618
9146697769
9146710542
9146734002
9146741054
9146850827
9146859478
9146869306
9146875856
9146876037
9146884449
9146912716
9146983705
9146991492
9150001053
9150106811
9150116332
9150131914
9150160866
9150191756
9150246014
9150297863
9150310194
9150399367
9150409737
9150450591
9150452415
9150461427
9150489825
9150517158
9150609837
9150639001
9150641854
9150658205
9150675422
9150682623
9150706139
9150710447
9150747937
9150763970
9150766879
9150803829
9150817765
9150834287
9150858838
9150864069
9150868121
9150895018
9150908154
9150910268
9150951926
9151178049
9151185270
9151185412
9151189256
9151195497
9151203414
9151205969
9151215687
9151224719
9151305632
9151306838
9151308992
9151317791
9151323393
9151338539
9151352445
9151357409
9151368917
9151375373
9151378190
9151385495
9151394524
9151398335
9151413342
9151415608
9151418424
9151419003
9151427461
9151428285
9151433675
9151436728
9151436861
9151438004
9151439238
9151442122
9151449865
9151455463
9151460369
9151462991
9151467474
9151470318
9151474556
9151477227
9151479828
9151483121
9151492182
9151498805
9151500883
9151506967
9151510506
9151512844
9151513594
9151514850
9151525046
9151525218
9151526403
9151527443
9151529155
9151529524
9151533113
9151536026
9151537025
9151539460
9151550637
9151558900
9151559446
9151561440
9151562374
9151562989
9151568295
9151571369
9151645291
9151652609
9151658122
9151659004
9151659724
9151706831
9151708839
9151720226
9151722964
9151741397
9151750077
9151752764
9151757252
9151758034
9151763985
9151764916
9151775303
9151775572
9151776328
9151780378
9151786146
9151787085
9151793295
9151793985
9151803386
9151815062
9151835145
9151848334
9151863497
9151873483
9151875356
9151981971
9151982933
9151983373
9151986566
9151989667
9151995311
9152185479
9152196094
9152302869
9152326075
9152327953
9152332921
9152360821
9152362979
9152363819
9152366747
9152377620
9152386776
9152390724
9152408419
9152422594
9152422714
9152426077
9152428424
9152429297
9152434091
9152447047
9152447319
9152453877
9152458309
9152464824
9152466825
9152470368
9152475996
9152481275
9152484530
9152487235
9152494968
9152496342
9152498066
9152501676
9152505040
9152505073
9152507871
9152510310
9152512970
9152515282
9152519117
9152519191
9152519842
9152519964
9152520519
9152520816
9152521761
9152525770
9152532351
9152533276
9152538150
9152541900
9152541909
9152547600
9152576794
9152589609
9152589620
9152591702
9152595731
9152596653
9152600516
9152601042
9152603892
9152607676
9152608371
9152609033
9152615291
9152618620
9152620897
9152622929
9152628829
9152632506
9152637227
9152701747
9152702431
9152719822
9152732416
9152735812
9152748672
9152749150
9152749741
9152756349
9152760021
9152760145
9152763614
9152775772
9152784807
9152800332
9152807647
9152807889
9152810767
9152812124
9152820701
9152841319
9152855421
9152858505
9152870389
9152899003
9152997967
9153004120
9153007020
9153007325
9153008061
9153017185
9153022472
9153023416
9153037158
9153047355
9153047629
9153064534
9153066368
9153066866
9153071213
9153074495
9153077445
9153078087
9153085326
9153086169
9153087027
9153090645
9153091447
9153092020
9153097063
9153097514
9153098677
9153105284
9153109736
9153110400
9153121842
9153125819
9153128108
9153133451
9153141889
9153142815
9153148857
9153153239
9153155704
9153157748
9153158773
9153167320
9153167457
9153168121
9153168696
9153168853
9153169926
9153170166
9153177049
9153177447
9153181287
9153181664
9153181705
9153182904
9153186873
9153195634
9153200433
9153204068
9153204400
9153206662
9153211667
9153212455
9153217286
9153218454
9153221204
9153224349
9153224865
9153227339
9153231497
9153238409
9153254344
9153255439
9153263168
9153272552
9153273513
9153277116
9153278533
9153279393
9153279436
9153280576
9153284315
9153291281
9153292260
9153303392
9153304636
9153306834
9153307921
9153308060
9153309148
9153309424
9153309767
9153310424
9153310435
9153310476
9153317412
9153328735
9153329477
9153342735
9153343935
9153346695
9153347573
9153347675
9153352809
9153353621
9153355859
9153358329
9153358408
9153360445
9153362507
9153364351
9153364678
9153366446
9153371041
9153371155
9153373302
9153374484
9153382498
9153385087
9153391580
9153393643
9153394593
9153396106
9153396528
9153397491
9153399696
9153408055
9153408106
9153409104
9153426971
9153435839
9153442052
9153443502
9153445418
9153447809
9153448574
9153457448
9153458972
9153475447
9153479865
9153480096
9153484015
9153489642
9153490809
9153495102
9153495515
9153504248
9153508085
9153510380
9153511135
9153514469
9153517243
9153519434
9153522835
9153525820
9153526912
9153527298
9153527505
9153531177
9153533559
9153535250
9153535694
9153538958
9153539069
9153539983
9153544023
9153545174
9153546515
9153548695
9153549169
9153551957
9153554318
9153555367
9153559763
9153564808
9153564988
9153565245
9153565530
9153569968
9153570101
9153574969
9153576875
9153578149
9153578174
9153580027
9153581160
9153583868
9153586008
9153588950
9153590299
9153591208
9153596831
9153597523
9153597586
9153602862
9153606185
9153606405
9153607782
9153609079
9153609850
9153612564
9153613367
9153614226
9153616805
9153623398
9153626957
9153636956
9153637745
9153639932
9153640585
9153642103
9153643516
9153648453
9153653090
9153654192
9153657425
9153673038
9153673318
9153674515
9153675685
9153677152
9153681426
9153681789
9153682692
9153683624
9153684062
9153684166
9153684737
9153687797
9153687974
9153689252
9153689763
9153706039
9153706890
9153707001
9153707187
9153709234
9153711228
9153711550
9153715640
9153718438
9153718576
9153725262
9153726817
9153729856
9153734639
9153734692
9153735339
9153736515
9153739185
9153742120
9153744924
9153745885
9153746800
9153747844
9153748346
9153749270
9153752844
9153756792
9153762658
9153765252
9153766439
9153769572
9153774885
9153784174
9153789637
9153791681
9153791861
9153795491
9153804082
9153804716
9153806028
9153809542
9153819445
9153821636
9153822205
9153827001
9153832705
9153835039
9153857520
9153858262
9153865095
9153865816
9153868074
9153868966
9153872151
9153876972
9153877169
9153888456
9153888943
9153894956
9153903066
9153903320
9153905097
9153908894
9153917893
9153924055
9153939582
9153939729
9153940737
9153944608
9153946330
9153947258
9210765372
9211228066
9211415464
9211811414
9233652281
9266852795
9274539877
9312057989
9564841420
9734211525
9741225152
9811999664
9933700149
9990888280

