8710979274
9141940750
8453466542
8711947152
8453316539
9141519799
8710842574
9141735949
9133801386
8453201974
8453465774
9141726765
9141487958
8453551095
9141769626
9141129039
9141023640
8453778887
8711963305
8711024408
8453684583
8453409799
9133138848
8453509903
8711989309
8453587065
8710970926
8453568907
8453045829
8693972043
8453693574
8710907057
8453251796
8453945922
8453926467
9133238625
8453833087
9141760668
9141142756
8453385526
9133679160
8453520668
9141819688
9141102002
9141715583
8453329431
9141365769
8710893044
9141811575
8710019587
9141515547
8453946867
8710971805
9133703220
9141338260
9141345124
8453386840
8710040394
9141396806
8453412154
8710056351
8453355416
9141684858
8711993017
8453013662
8453218679
8710004808
8710980640
8453095865
8453348019
9141158938
9141828390
8453546509
8453388633
8710036355
8453666485
8453085449
9141342629
8694969974
9141812769
8710911272
8453528174
9141925883
8453086064
8453314396
8453770833
9141196315
8711903617
9133391226
9141049962
8710035588
8453030943
9141673719
8711933707
8710001059
9141308262
8711868617
8710953044
9133212452
8710984400
8710083550
9141026861
9141157199
9141773226
9141479975
8453460060
9141699138
8453408561
9141667237
8711975820
8453662171
8710836637
8710996889
8453412655
8710898369
9141301299
9141613856
9141689504
8711871210
8711851277
8453339387
9141941504
8453257420
8453752995
9141924727
8453629404
9141504087
9141330903
9141394427
9141226928
8453519104
8453359035
9141942132
8710938349
8711849850
9133301589
9141155539
8453746267
8453573714
9141460288
8453786304
8453420183
9133744527
9141289928
9133229645
8710960919
8453083260
9133592453
8710088581
8710868749
8710910395
8710996498
9141701495
8453600774
8453383231
8453660909
8453825054
9141107957
9141130219
8710850249
8453545550
8710957078
9141174056
9141590127
9141473825
8710898031
8453697292
9141864336
9141874942
9141573186
9133809578
8453254667
8453446338
9141417187
8453953209
9141063417
8453643373
9141504844
8453915206
9141351936
9141490789
9141042126
9141721372
8453814866
9141168849
9141314018
8453255106
8693987167
9133869677
8710930865
8711944640
8710091524
9141100687
9141339674
8453510424
8453924991
8453635352
9141842568
8453299954
8710864490
8693947306
8711932924
8453444615
8710985138
8453484181
8453497006
9141876927
8453928758
8453245705
8710867929
8453311410
8710085541
8711939244
8710949670
8453911701
8453459799
8453850890
9141813162
8710824776
8453627757
8710988808
8453544924
9141702161
8453807900
9141091053
8453923549
9141602958
8453399094
8710847073
8453434998
8453832522
8453591828
8453602530
8710047175
9133537059
8453418019
8453415662
9141294202
9133898335
8453298358
8710888001
8711965569
8453231552
8453392614
8711945241
8710094878
8453963642
8711912051
9133281408
9141134914
8710824038
8453665610
8453302718
9141743945
8453861959
9133635086
8694962184
8710940663
8710954801
8453585407
9141582226
9141610396
8711997318
8453550734
8711902657
8453889223
8453080126
8453786302
8453933856
8453989142
8710980692
9141114731
8694998509
8711960634
9141784044
9141038022
8453783619
9141854494
8453464272
8453980451
8453217667
8453253969
9141873403
9141172870
8453378142
8453696468
8694983547
9141571636
9141074830
9141158557
8453744486
9141105781
8710831922
8453805332
9141218995
8453464413
8453099682
8453381408
8710929605
9141677134
8711940387
8694899419
8453031925
8453578126
8453446695
8693945467
8693956206
8453032693
9141342747
9141727338
8710910545
9141861261
8693940063
9141707674
8453383149
8453390981
9141554721
9141188378
9141934655
9141007532
9141831631
8453577897
9141784750
8453225702
8453780527
9141396408
8453348173
8453616915
9141116496
9141416038
9141866206
8453375907
8710978286
9141094365
8711952553
8453949534
9133267975
8453837075
8693932054
9141249305
9141104355
8453731269
9141386150
9133410521
9141823562
8453070313
9133220839
8453528738
8453016279
8453976808
9141630412
8710047629
9141156511
9133750114
8453572830
9141877324
9141665119
8710991604
8710921825
9141582803
8711801918
9141686911
8694894545
9141184088
9133462275
8710081878
9141038683
8710056992
8453735319
8453377764
9141836951
8711841013
8711924330
8453592558
9141765124
8710873782
8453687968
8453923463
9141421720
8453066981
9141069680
9141703174
8710914751
8453833466
9133948717
9133268524
8710957948
9141146917
8710869800
8710975940
8710839785
9141864449
9141036057
8711931898
9133807171
8710999074
9141788415
8693926946
8453924854
9141255698
9133299205
9141672693
8453329417
8453496366
8453819287
9141252055
8711983073
9141340544
8711961366
8710982480
8453462330
8710036474
9133210994
9141296660
9141299844
8453522688
8453562903
9141633428
8453331597
9141336191
9141356587
8711909581
8710093130
8710052851
8710869390
8453679215
8453698022
8453772708
8710931935
9141688690
9133354543
9141129292
9141817982
9141113028
8710027795
9133681446
8453569027
8453877685
8453223219
9141892377
8711989143
8453511419
8693955104
8711963103
8711014073
8710806926
9141922921
8453369716
8710927424
9141464324
8453503944
8710870438
8453219537
8693947315
8711905176
9141340321
8453252980
8453756072
8453353879
8453401504
8453583995
8711845469
8453470886
9141335510
8710972723
8693950383
8453569986
9141298710
9133308029
9141264309
8453204865
9133584343
9141417536
8453997091
8711912911
8711844504
8710881312
9141930919
8453660342

