9141342747
9141729611
9141104663
8453585217
9141188836
8453462762
9141982874
9141042534
8453027841
9141662124
9133084260
8710027606
8710991330
8693942066
9133231445
9141554721
8453632246
8710097381
9141142756
9141264172
8453196506
8693947800
8710046979
9133171968
8453465503
8711907905
9141775782
9141038022
9141751978
8453199043
9141784750
8693931553
8453556518
9133223636
8453941338
8453552925
9141828390
8453475370
8453928419
8453628747
9133681446
8453335466
9141256300
8710989954
8453591828
9133332941
9141004985
9141826924
8710940098
9133947438
8693918306
9133162916
8710806926
8710064750
8453557821
9133436114
8710869906
9141172870
9141258859
8453437214
8710903746
8453005626
9141841698
8710895614
8453471276
9141792619
9141736701
9141592788
8453340702
8453520668
8710926020
8711951036
8711941982
9141704815
8453216072
8711871210
Msisdn
8453877684
8453044097
9141773226
9141767756
8711800637
8711955734
8710047629
9141492884
8710984430
8710066564
9141721855
8453394944
9141773823
8711939244
8710914170
8710905724
8710847207
8453027815
8710953044
9141504280
9141746169
8453936802
8453826405
8453576105
8710083100
9133332127
9141026976
8710887276
8710082508
8453399094
8453032693
8710992867
8453384525
9141436600
8453662171
8453302718
8453853415
8710911588
9133834011
9133661023
8453066981
8710040964
8453073381
8453950223
9133379740
8453980173
9141026861
8711941154
8453575192
8710981308
8693961217
8453662801
8453815060
9141107957
9141248486
9133576201
9141409078
9141282621
8711996959
9141298710
8453322923
9133391226
8453540133
8453255106
8453014824
8453387732
8693941781
8453877685
9141859640
9141293163
8710045649
8453070189
8453280082
8453492622
9141576562
9141827649
9141142609
8710926927
8453384900
9141920910
8453299954
8693971532
9141218995
8453221061
8693928694
8453107813
9133630407
8453491890
9141430734
8453660342
9141372874
8453329431
8453705081
8710921998
8453272519
9141675077
8710839129
9141267703
9141437819
9141708609
9141985893
8710034605
9141008858
8453729924
8453893271
8453425721
9141210429
8453686035
8710925294
8453528174
9141028034
8453409799
9141156511
9133169395
9141817982
8453791873
8453918975
8711953705
9141184088
8453569986
9141235571
8710871944
8453386840
9141935146
8453218968
8710907303
8693970467
9141129039
9141688690
9133279582
8710963024
8710041454
9133669276
9141661318
8710928183
9141523106
9141829590
8710097578
8710867929
8711915302
8710880512
8453374947
8453034648
8453505033
8710942859
8453211144
8453763460
9133828639
9141402788
8710875164
9141114731
9141468053
8710938477
8453919406
8453563460
8711891252
8710984988
8693967542
9141165875
9141602986
9141068492
9141128582
9141629360
8453223906
8453058719
9133258636
8710052337
9133864923
8453996940
8693934125
9141726765
9141303640
8453782436
9141136980
8710910395
9141340321
8711963103
8453588841
9141743945
9141878596
8453563276
8710964928
9141711055
9141119186
8710982480
9141064808
8453570527
8453239817
8453995896
8710067830
8453554442
9141037017
8453514838
8453567303
8693974048
9141831631
8453434998
9141597020
8710878601
8710994881
8693958663
9141421391
9133175168
8453274309
8453777706
8711905711
9141854494
9141686911
8453834549
9141063621
8710893595
8710977967
9133869677
8711917247
8453914951
8453815084
9133230828
9141123367
9141074041
9141815302
9133277556
9141352216
9141295846
8711969251
9141432473
9141630412
9133167384
9141488274
9133008966
8693922556
9141473825
8453303086
9141736332
8710956189
8710992163
9141784044
8453635352
8453822303
8453312072
8453491926
8711963482
9141758567
9133139591
8453197646
8711901938
8710884827
8453085449
9133678384
8453573361
8453786304
9133262512
8710882830
9141003515
8453809441
8453983275
8711962744
9141272733
8710910443

